Result,Frequency,Probability
3,53,0.0053
4,135,0.0135
5,276,0.0276
6,462,0.0462
7,705,0.0705
8,929,0.0929
9,1132,0.1132
10,1256,0.1256
11,1291,0.1291
12,1133,0.1133
13,981,0.0981
14,687,0.0687
15,469,0.0469
16,296,0.0296
17,136,0.0136
18,59,0.0059
